Distance (m), Deflection (mm)
0.1, 1.2
0.2, 1.8
0.3, 2.4
0.4, 2.9
0.5, 3.2
0.6, 3.5
0.7, 3.7
0.8, 3.8
0.9, 3.8
1.0, 3.7
1.1, 3.5
1.2, 3.2
1.3, 2.9
1.4, 2.4
1.5, 1.8
1.6, 1.2
1.7, 0.5
1.8, 0.0
1.9, -0.5
2.0, -1.2